# multipoles
# s[mm] polynom_b[n=1][T/m^n] polynom_b[n=5][T/m^n] polynom_b[n=9][T/m^n] polynom_b[n=13][T/m^n] 
+0.0000000000000000e+00 +4.9630573295598630e+00 +1.1764317276418419e+05 +4.0361334750077441e+11 +1.3848916088956132e+18 
+1.0000000000000001e-01 +4.9630570830833820e+00 +1.1765139052665065e+05 +4.0344358714633704e+11 +1.3856172813317110e+18 
+2.0000000000000001e-01 +4.9630563486494257e+00 +1.1767546056130007e+05 +4.0295522912653839e+11 +1.3877096141877061e+18 
+3.0000000000000004e-01 +4.9630551337518112e+00 +1.1771450792468750e+05 +4.0217965942328802e+11 +1.3910415724984417e+18 
+4.0000000000000002e-01 +4.9630534458836610e+00 +1.1776765775170890e+05 +4.0114826228713281e+11 +1.3954861314169480e+18 
+5.0000000000000000e-01 +4.9630512925386254e+00 +1.1783403511649095e+05 +3.9989242331481348e+11 +1.4009162582325885e+18 
+6.0000000000000009e-01 +4.9630486812101609e+00 +1.1791276511735756e+05 +3.9844352755760681e+11 +1.4072049234444634e+18 
+7.0000000000000007e-01 +4.9630456193917629e+00 +1.1800297284580999e+05 +3.9683296023582001e+11 +1.4142250965006075e+18 
+8.0000000000000004e-01 +4.9630421145771138e+00 +1.1810378337321030e+05 +3.9509210700330151e+11 +1.4218497443678377e+18 
+9.0000000000000002e-01 +4.9630381742594212e+00 +1.1821432182591835e+05 +3.9325235228790320e+11 +1.4299518412017603e+18 
+1.0000000000000000e+00 +4.9630338059322678e+00 +1.1833371328669957e+05 +3.9134508149224683e+11 +1.4384043554290094e+18 
+1.1000000000000001e+00 +4.9630290143125180e+00 +1.1846133253914215e+05 +3.8939274195933746e+11 +1.4471276408853676e+18 
+1.2000000000000002e+00 +4.9630237930094161e+00 +1.1859755326565426e+05 +3.8738202662397656e+11 +1.4562316058855770e+18 
+1.3000000000000000e+00 +4.9630181328553942e+00 +1.1874299886763599e+05 +3.8529068985842822e+11 +1.4658735474673500e+18 
+1.4000000000000001e+00 +4.9630120246836249e+00 +1.1889829265061932e+05 +3.8309648831026550e+11 +1.4762107488037765e+18 
+1.5000000000000000e+00 +4.9630054593263546e+00 +1.1906405803395130e+05 +3.8077717599476233e+11 +1.4874005088774971e+18 
+1.6000000000000001e+00 +4.9629984276161530e+00 +1.1924091839962768e+05 +3.7831050777445325e+11 +1.4996001216235648e+18 
+1.7000000000000002e+00 +4.9629909203861953e+00 +1.1942949705522764e+05 +3.7567424021497162e+11 +1.5129668708340769e+18 
+1.8000000000000000e+00 +4.9629829284684108e+00 +1.1963041745932373e+05 +3.7284612643376312e+11 +1.5276580608372180e+18 
+1.9000000000000001e+00 +4.9629744426959830e+00 +1.1984430292028627e+05 +3.6980392296315387e+11 +1.5438309756699277e+18 
+2.0000000000000000e+00 +4.9629654539010994e+00 +1.2007177686284141e+05 +3.6652538372154279e+11 +1.5616429147925711e+18 
+2.1000000000000001e+00 +4.9629559545637436e+00 +1.2031322261715683e+05 +3.6299804398342920e+11 +1.5811646125499418e+18 
+2.2000000000000002e+00 +4.9629459437502383e+00 +1.2056806370777445e+05 +3.5924855153682770e+11 +1.6021206191282427e+18 
+2.3000000000000003e+00 +4.9629354221745716e+00 +1.2083548358116399e+05 +3.5531333515210260e+11 +1.6241489218049052e+18 
+2.4000000000000004e+00 +4.9629243905499631e+00 +1.2111466576779811e+05 +3.5122882176502606e+11 +1.6468875185096689e+18 
+2.5000000000000000e+00 +4.9629128495903982e+00 +1.2140479371849277e+05 +3.4703143999907098e+11 +1.6699743975605650e+18 
+2.6000000000000001e+00 +4.9629008000094643e+00 +1.2170505092049830e+05 +3.4275761777421399e+11 +1.6930475510254024e+18 
+2.7000000000000002e+00 +4.9628882425203988e+00 +1.2201462090759940e+05 +3.3844378189014130e+11 +1.7157449778548521e+18 
+2.8000000000000003e+00 +4.9628751778373505e+00 +1.2233268710558802e+05 +3.3412636160102838e+11 +1.7377046624030451e+18 
+2.9000000000000004e+00 +4.9628616066735258e+00 +1.2265843305331314e+05 +3.2984178358448993e+11 +1.7585646043648512e+18 
+3.0000000000000000e+00 +4.9628475297428887e+00 +1.2299104219230096e+05 +3.2562647680503333e+11 +1.7779627895783437e+18 
+3.1000000000000001e+00 +4.9628329448934441e+00 +1.2333004602276323e+05 +3.2150338824099011e+11 +1.7956666291026143e+18 
+3.2000000000000002e+00 +4.9628178385109365e+00 +1.2367636802666858e+05 +3.1744154341446057e+11 +1.8119611936642068e+18 
+3.3000000000000003e+00 +4.9628021941163087e+00 +1.2403127960588237e+05 +3.1339648902478174e+11 +1.8272609603807212e+18 
+3.4000000000000004e+00 +4.9627859952296580e+00 +1.2439605225693862e+05 +3.0932376969339465e+11 +1.8419804184482627e+18 
+3.5000000000000000e+00 +4.9627692253717761e+00 +1.2477195739677610e+05 +3.0517893180820673e+11 +1.8565340467211878e+18 
+3.6000000000000001e+00 +4.9627518680628580e+00 +1.2516026651017896e+05 +3.0091752025503711e+11 +1.8713363328438912e+18 
+3.7000000000000002e+00 +4.9627339068233223e+00 +1.2556225105538299e+05 +2.9649508051195850e+11 +1.8868017609781386e+18 
+3.8000000000000003e+00 +4.9627153251740470e+00 +1.2597918243993896e+05 +2.9186715918801923e+11 +1.9033448086285929e+18 
+3.9000000000000004e+00 +4.9626961066353434e+00 +1.2641233213550206e+05 +2.8698930144765240e+11 +1.9213799618545516e+18 
+4.0000000000000000e+00 +4.9626762347277111e+00 +1.2686297159327182e+05 +2.8181705291477148e+11 +1.9413217039960517e+18 
+4.1000000000000005e+00 +4.9626556937037059e+00 +1.2733222086260693e+05 +2.7631320569634082e+11 +1.9635089056900805e+18 
+4.2000000000000002e+00 +4.9626344707449217e+00 +1.2782059430603759e+05 +2.7046953948590555e+11 +1.9879779774275948e+18 
+4.2999999999999998e+00 +4.9626125537651884e+00 +1.2832845485765616e+05 +2.6428508111954980e+11 +2.0146897128981765e+18 
+4.4000000000000004e+00 +4.9625899306780550e+00 +1.2885616549584683e+05 +2.5775885632410159e+11 +2.0436049127190001e+18 
+4.5000000000000000e+00 +4.9625665893973387e+00 +1.2940408915796895e+05 +2.5088989183822659e+11 +2.0746843712402486e+18 
+4.6000000000000005e+00 +4.9625425178364262e+00 +1.2997258883876335e+05 +2.4367721305124289e+11 +2.1078888909653732e+18 
+4.7000000000000002e+00 +4.9625177039094854e+00 +1.3056202743635165e+05 +2.3611984757143933e+11 +2.1431792611522381e+18 
+4.8000000000000007e+00 +4.9624921355298115e+00 +1.3117276795261368e+05 +2.2821682065397092e+11 +2.1805162850109153e+18 
+4.9000000000000004e+00 +4.9624658006114961e+00 +1.3180517329896253e+05 +2.1996715957269733e+11 +2.2198607538864927e+18 
+5.0000000000000000e+00 +4.9624386870679160e+00 +1.3245960646702259e+05 +2.1136988981581589e+11 +2.2611734696122207e+18 
+5.1000000000000005e+00 +4.9624107832024844e+00 +1.3313614868626228e+05 +2.0243229211208246e+11 +2.3043564484271168e+18 
+5.2000000000000002e+00 +4.9623820788763000e+00 +1.3383375443719019e+05 +1.9319466118649612e+11 +2.3490766061559578e+18 
+5.3000000000000007e+00 +4.9623525643404340e+00 +1.3455109643928343e+05 +1.8370554703426981e+11 +2.3949420726771205e+18 
+5.4000000000000004e+00 +4.9623222298450713e+00 +1.3528684752378045e+05 +1.7401349706220639e+11 +2.4415609933917773e+18 
+5.5000000000000000e+00 +4.9622910656416321e+00 +1.3603968037139685e+05 +1.6416706211423859e+11 +2.4885414932434647e+18 
+5.6000000000000005e+00 +4.9622590619807072e+00 +1.3680826776295935e+05 +1.5421479075053293e+11 +2.5354917107760809e+18 
+5.7000000000000002e+00 +4.9622262091127114e+00 +1.3759128249782621e+05 +1.4420523113641022e+11 +2.5820197867766282e+18 
+5.8000000000000007e+00 +4.9621924972887497e+00 +1.3838739729560207e+05 +1.3418693323088115e+11 +2.6277338514438047e+18 
+5.9000000000000004e+00 +4.9621579167595851e+00 +1.3919528491515981e+05 +1.2420844610382538e+11 +2.6722420402498028e+18 
+6.0000000000000000e+00 +4.9621224577757941e+00 +1.4001361814007119e+05 +1.1431831824905989e+11 +2.7151524921364142e+18 
+6.1000000000000005e+00 +4.9620861059403802e+00 +1.4084191313984169e+05 +1.0453908217334949e+11 +2.7562736800936387e+18 
+6.2000000000000002e+00 +4.9620488282644608e+00 +1.4168305984426342e+05 +9.4789201312538483e+10 +2.7962154443495992e+18 
+6.3000000000000007e+00 +4.9620105871116715e+00 +1.4254079155816144e+05 +8.4961123354833252e+10 +2.8357879578038328e+18 
+6.4000000000000004e+00 +4.9619713448451659e+00 +1.4341884164608066e+05 +7.4947294624915237e+10 +2.8758014014526761e+18 
+6.5000000000000000e+00 +4.9619310638282386e+00 +1.4432094345104700e+05 +6.4640161984549446e+10 +2.9170659529404047e+18 
+6.6000000000000005e+00 +4.9618897064242145e+00 +1.4525083032053750e+05 +5.3932172099445702e+10 +2.9603917914194196e+18 
+6.7000000000000002e+00 +4.9618472349965366e+00 +1.4621223558132269e+05 +4.2715772180594017e+10 +3.0065890925323638e+18 
+6.8000000000000007e+00 +4.9618036119083415e+00 +1.4720889259877781e+05 +3.0883408546947605e+10 +3.0564680372709560e+18 
+6.9000000000000004e+00 +4.9617587995233121e+00 +1.4824453467564221e+05 +1.8327528899055386e+10 +3.1108387985708175e+18 
+7.0000000000000000e+00 +4.9617127602045450e+00 +1.4932289518188234e+05 +4.9405794546213369e+09 +3.1705115580108856e+18 
+7.1000000000000005e+00 +4.9616654597670733e+00 +1.5044678830116760e+05 -9.3555805699004421e+09 +3.2360613073698089e+18 
+7.2000000000000002e+00 +4.9616168778328307e+00 +1.5161535157617068e+05 -2.4521442336636028e+10 +3.3071222933074386e+18 
+7.3000000000000007e+00 +4.9615669974756180e+00 +1.5282680337966961e+05 -4.0488084460933067e+10 +3.3830935756167936e+18 
+7.4000000000000004e+00 +4.9615158017686554e+00 +1.5407936214474402e+05 -5.7186586826647011e+10 +3.4633742212883732e+18 
+7.5000000000000000e+00 +4.9614632737858448e+00 +1.5537124622849707e+05 -7.4548027661854065e+10 +3.5473632877241257e+18 
+7.6000000000000005e+00 +4.9614093966007440e+00 +1.5670067402785888e+05 -9.2503486060204178e+10 +3.6344598373115049e+18 
+7.7000000000000002e+00 +4.9613541532869894e+00 +1.5806586392655567e+05 -1.1098404081087735e+11 +3.7240629306389217e+18 
+7.8000000000000007e+00 +4.9612975269180852e+00 +1.5946503433049284e+05 -1.2992077124686577e+11 +3.8155716316490296e+18 
+7.9000000000000004e+00 +4.9612395005676833e+00 +1.6089640362415163e+05 -1.4924475618069705e+11 +3.9083850010710518e+18 
+8.0000000000000000e+00 +4.9611800573093774e+00 +1.6235819020156085e+05 -1.6888707467330981e+11 +4.0019021012308157e+18 
+8.0999999999999996e+00 +4.9611191777042016e+00 +1.6384892390012616e+05 -1.8878891091221146e+11 +4.0956274443230126e+18 
+8.2000000000000011e+00 +4.9610568322635205e+00 +1.6536838029591303e+05 -2.0893186911424246e+11 +4.1894873402566144e+18 
+8.3000000000000007e+00 +4.9609929889858915e+00 +1.6691664643446327e+05 -2.2930765918512564e+11 +4.2835135520605363e+18 
+8.4000000000000004e+00 +4.9609276158701698e+00 +1.6849380932913165e+05 -2.4990799033564301e+11 +4.3777378387502300e+18 
+8.5000000000000000e+00 +4.9608606809150420e+00 +1.7009995601535653e+05 -2.7072457229404605e+11 +4.4721919624784660e+18 
+8.5999999999999996e+00 +4.9607921521191765e+00 +1.7173517352751718e+05 -2.9174911473958136e+11 +4.5669076850208589e+18 
+8.7000000000000011e+00 +4.9607219974811265e+00 +1.7339954891787836e+05 -3.1297332778724567e+11 +4.6619167708279071e+18 
+8.8000000000000007e+00 +4.9606501849999010e+00 +1.7509316918037957e+05 -3.3438892018960510e+11 +4.7572509761383496e+18 
+8.9000000000000004e+00 +4.9605766826741142e+00 +1.7681612135824328e+05 -3.5598760185743732e+11 +4.8529420642170337e+18 
+9.0000000000000000e+00 +4.9605014585023692e+00 +1.7856849249579880e+05 -3.7776108269615155e+11 +4.9490217981568041e+18 
+9.0999999999999996e+00 +4.9604244762092655e+00 +1.8035091816452504e+05 -3.9971666099925427e+11 +5.0456013073244856e+18 
+9.2000000000000011e+00 +4.9603456824220276e+00 +1.8216622823322559e+05 -4.2192399301266821e+11 +5.1431092124700201e+18 
+9.3000000000000007e+00 +4.9602650194938054e+00 +1.8401780110186440e+05 -4.4446832340162329e+11 +5.2420535005797356e+18 
+9.4000000000000004e+00 +4.9601824297772561e+00 +1.8590901523253878e+05 -4.6743489828072437e+11 +5.3429421673723126e+18 
+9.5000000000000000e+00 +4.9600978556259170e+00 +1.8784324898397143e+05 -4.9090896141197723e+11 +5.4462831945610383e+18 
+9.6000000000000014e+00 +4.9600112393922924e+00 +1.8982388083652328e+05 -5.1497575932142297e+11 +5.5525845803026483e+18 
+9.7000000000000011e+00 +4.9599225234298254e+00 +1.9185428915584777e+05 -5.3972053590003375e+11 +5.6623543069919754e+18 
+9.8000000000000007e+00 +4.9598316500913935e+00 +1.9393785238128802e+05 -5.6522853676648401e+11 +5.7761003674618593e+18 
+9.9000000000000004e+00 +4.9597385617298562e+00 +1.9607794894958401e+05 -5.9158500745263623e+11 +5.8943307539595192e+18 
+1.0000000000000000e+01 +4.9596432006984967e+00 +1.9827795724662652e+05 -6.1887519229971277e+11 +6.0175534515002204e+18 
+1.0100000000000001e+01 +4.9595455088984828e+00 +2.0054084720971162e+05 -6.4716951228402930e+11 +6.1461736340848384e+18 
+1.0200000000000001e+01 +4.9594454264245735e+00 +2.0286795472434445e+05 -6.7647908879913257e+11 +6.2801851941384540e+18 
+1.0300000000000001e+01 +4.9593428929193202e+00 +2.0526020723826226e+05 -7.0680022008345032e+11 +6.4194792141624525e+18 
+1.0400000000000000e+01 +4.9592378480258343e+00 +2.0771853212781140e+05 -7.3812920271264368e+11 +6.5639467666416527e+18 
+1.0500000000000000e+01 +4.9591302313868217e+00 +2.1024385682259352e+05 -7.7046233452141077e+11 +6.7134789317046733e+18 
+1.0600000000000001e+01 +4.9590199826452306e+00 +2.1283710871648428e+05 -8.0379591246049194e+11 +6.8679667839860951e+18 
+1.0700000000000001e+01 +4.9589070414438154e+00 +2.1549921523377061e+05 -8.3812623424601233e+11 +7.0273014029172511e+18 
+1.0800000000000001e+01 +4.9587913474254908e+00 +2.1823110377821318e+05 -8.7344959711854834e+11 +7.1913738650748672e+18 
+1.0900000000000000e+01 +4.9586728402332652e+00 +2.2103370173838554e+05 -9.0976229792937341e+11 +7.3600752445750415e+18 
+1.1000000000000000e+01 +4.9585514595096836e+00 +2.2390793656281609e+05 -9.4706063493141089e+11 +7.5332966239869696e+18 
+1.1100000000000001e+01 +4.9584271458111218e+00 +2.2685432855098505e+05 -9.8533155862415051e+11 +7.7108861598851287e+18 
+1.1200000000000001e+01 +4.9582998433468335e+00 +2.2987176971540894e+05 -1.0245246355988555e+12 +7.8925203472520315e+18 
+1.1300000000000001e+01 +4.9581694972398083e+00 +2.3295874493537674e+05 -1.0645800850790686e+12 +8.0778327574564516e+18 
+1.1400000000000000e+01 +4.9580360526123339e+00 +2.3611373917393255e+05 -1.1054381282066934e+12 +8.2664569733055037e+18 
+1.1500000000000000e+01 +4.9578994545874693e+00 +2.3933523729787141e+05 -1.1470389838854856e+12 +8.4580265641494159e+18 
+1.1600000000000001e+01 +4.9577596482877446e+00 +2.4262172424445607e+05 -1.1893228726790415e+12 +8.6521751093772401e+18 
+1.1700000000000001e+01 +4.9576165788357383e+00 +2.4597168493732228e+05 -1.2322300147939470e+12 +8.8485361861224827e+18 
+1.1800000000000001e+01 +4.9574701913544175e+00 +2.4938360426387843e+05 -1.2757006296873447e+12 +9.0467433672892774e+18 
+1.1900000000000000e+01 +4.9573204309662158e+00 +2.5285596716110941e+05 -1.3196749378214045e+12 +9.2464302313678746e+18 
+1.2000000000000000e+01 +4.9571672427940241e+00 +2.5638725852436360e+05 -1.3640931588209666e+12 +9.4472303522152346e+18 
+1.2100000000000001e+01 +4.9570105630869064e+00 +2.5997712566712440e+05 -1.4089258521772402e+12 +9.6489542334629212e+18 
+1.2200000000000001e+01 +4.9568502925999374e+00 +2.6362986545102560e+05 -1.4542649342211240e+12 +9.8521200828098806e+18 
+1.2300000000000001e+01 +4.9566863232144271e+00 +2.6735093715213978e+05 -1.5002326610987681e+12 +1.0057423037527108e+19 
+1.2400000000000000e+01 +4.9565185468119486e+00 +2.7114580002245255e+05 -1.5469512884660520e+12 +1.0265558232149967e+19 
+1.2500000000000000e+01 +4.9563468552737149e+00 +2.7501991334509733e+05 -1.5945430725735488e+12 +1.0477220804369211e+19 
+1.2600000000000001e+01 +4.9561711404815032e+00 +2.7897873634540517e+05 -1.6431302684583003e+12 +1.0693105885019249e+19 
+1.2700000000000001e+01 +4.9559912943165454e+00 +2.8302772830991837e+05 -1.6928351325048342e+12 +1.0913908612773794e+19 
+1.2800000000000001e+01 +4.9558072086602438e+00 +2.8717234850779560e+05 -1.7437799207307307e+12 +1.1140324124224682e+19 
+1.2900000000000000e+01 +4.9556187753940995e+00 +2.9141805619235220e+05 -1.7960868887576384e+12 +1.1373047553501628e+19 
+1.3000000000000000e+01 +4.9554258863995013e+00 +2.9577031063167372e+05 -1.8498782925537986e+12 +1.1612774036817271e+19 
+1.3100000000000001e+01 +4.9552284336155044e+00 +3.0023368815363775e+05 -1.9052513038157637e+12 +1.1860055523358132e+19 
+1.3200000000000001e+01 +4.9550263092108828e+00 +3.0480923341549595e+05 -1.9622027589784373e+12 +1.2114871224243659e+19 
+1.3300000000000001e+01 +4.9548194054119401e+00 +3.0949710815057956e+05 -2.0207044105738035e+12 +1.2377057165750196e+19 
+1.3400000000000000e+01 +4.9546076144451678e+00 +3.1429747407005948e+05 -2.0807280106377849e+12 +1.2646449371234537e+19 
+1.3500000000000000e+01 +4.9543908285369254e+00 +3.1921049289724743e+05 -2.1422453114331672e+12 +1.2922883865219670e+19 
+1.3600000000000001e+01 +4.9541689399132425e+00 +3.2423632640035840e+05 -2.2052280663037793e+12 +1.3206196678869985e+19 
+1.3700000000000001e+01 +4.9539418408010176e+00 +3.2937513624079310e+05 -2.2696480261481616e+12 +1.3496223828762556e+19 
+1.3800000000000001e+01 +4.9537094234260932e+00 +3.3462708420354681e+05 -2.3354769446297051e+12 +1.3792801347744084e+19 
+1.3900000000000000e+01 +4.9534715800150293e+00 +3.3999233199252508e+05 -2.4026865736327979e+12 +1.4095765258321525e+19 
+1.4000000000000000e+01 +4.9532282027943637e+00 +3.4547104131165426e+05 -2.4712486649912021e+12 +1.4404951582500362e+19 
+1.4100000000000001e+01 +4.9529791792768352e+00 +3.5106372748967219e+05 -2.5411437945738550e+12 +1.4720233310654743e+19 
+1.4200000000000001e+01 +4.9527243781221406e+00 +3.5677232010668493e+05 -2.6123878286891309e+12 +1.5041631272336826e+19 
+1.4300000000000001e+01 +4.9524636632767089e+00 +3.6259910229779041e+05 -2.6850054560089512e+12 +1.5369203255231195e+19 
+1.4400000000000000e+01 +4.9521968986865508e+00 +3.6854635725058737e+05 -2.7590213664274302e+12 +1.5703007054374916e+19 
+1.4500000000000000e+01 +4.9519239482982194e+00 +3.7461636808711238e+05 -2.8344602483350688e+12 +1.6043100455825476e+19 
+1.4600000000000001e+01 +4.9516446760581330e+00 +3.8081141794839752e+05 -2.9113467905889370e+12 +1.6389541248543582e+19 
+1.4700000000000001e+01 +4.9513589459121876e+00 +3.8713379003548133e+05 -2.9897056833649526e+12 +1.6742387229139198e+19 
+1.4800000000000001e+01 +4.9510666218070583e+00 +3.9358576745653059e+05 -3.0695616147707905e+12 +1.7101696182122863e+19 
+1.4900000000000000e+01 +4.9507675676890308e+00 +4.0016963336479169e+05 -3.1509392738877178e+12 +1.7467525897580308e+19 
+1.5000000000000000e+01 +4.9504616475040111e+00 +4.0688767096629174e+05 -3.2338633510771621e+12 +1.7839934173489211e+19 
+1.5100000000000001e+01 +4.9501487163910607e+00 +4.1374267289496766e+05 -3.3183714453152168e+12 +1.8219075131262429e+19 
+1.5200000000000001e+01 +4.9498285942585429e+00 +4.2073946993660968e+05 -3.4045528003856172e+12 +1.8605488248638161e+19 
+1.5300000000000001e+01 +4.9495010922074316e+00 +4.2788340238582308e+05 -3.4925095706773301e+12 +1.8999809339136627e+19 
+1.5400000000000000e+01 +4.9491660213387751e+00 +4.3517981052436843e+05 -3.5823439102328105e+12 +1.9402674214016770e+19 
+1.5500000000000000e+01 +4.9488231927533031e+00 +4.4263403466988180e+05 -3.6741579739108599e+12 +1.9814718689412719e+19 
+1.5600000000000001e+01 +4.9484724175518169e+00 +4.5025141513650730e+05 -3.7680539165242944e+12 +2.0236578581280817e+19 
+1.5700000000000001e+01 +4.9481135068354956e+00 +4.5803729218929104e+05 -3.8641338917270347e+12 +2.0668889698546344e+19 
+1.5800000000000001e+01 +4.9477462717051273e+00 +4.6599700614136952e+05 -3.9625000542931938e+12 +2.1112287856894521e+19 
+1.5900000000000000e+01 +4.9473705232617187e+00 +4.7413589727811178e+05 -4.0632545583471685e+12 +2.1567408868080935e+19 
+1.6000000000000000e+01 +4.9469860726062027e+00 +4.8245930589811434e+05 -4.1664995583506890e+12 +2.2034888545991078e+19 
+1.6100000000000001e+01 +4.9465927286163094e+00 +4.9097174561273359e+05 -4.2723111421464043e+12 +2.2515169515666629e+19 
+1.6199999999999999e+01 +4.9461902912786995e+00 +4.9967442310797091e+05 -4.3806611274162300e+12 +2.3007921626032480e+19 
+1.6300000000000001e+01 +4.9457785583564826e+00 +5.0856771842372656e+05 -4.4914952661476523e+12 +2.3512621542636454e+19 
